,domain [h],image [bar]
0,-0,50
1,0.00091019444444444438,50.010896325550185
2,0.0018204166666666666,50.018185579221502
3,0.0032093055555555555,50.01880372711819
4,0.0045981944444444447,50.014373439903345
5,0.005987083333333333,50.006809188452159
6,0.0073759722222222221,49.999655227317668
7,0.0087648611111111104,49.995123394744589
8,0.01015375,49.993742030678625
9,0.011542638888888889,49.995167363244526
10,0.012931527777777778,49.997945853851363
11,0.014320416666666667,50.000717815917518
12,0.015709305555555556,50.002598509417048
13,0.017098194444444444,50.003290668724709
14,0.018487083333333335,50.002979339679499
15,0.019875972222222222,50.002107653428112
16,0.021264861111111109,50.001146206304071
17,0.02265375,50.000431144599936
18,0.024042638888888888,50.000106450359148
19,0.025431527777777779,50.000139921659908
20,0.026820416666666666,50.000396283600573
21,0.028209305555555557,50.000715672160595
22,0.029598194444444444,50.00097300883187
23,0.030987083333333332,50.001105195951695
24,0.032375972222222223,50.001113173598277
25,0.033764861111111114,50.00103541296474
26,0.035153749999999997,50.000925861990027
27,0.036542638888888881,50.000828624116473
28,0.037931527777777772,50.000770491932357
29,0.039320416666666663,50.000755586482285
30,0.040709305555555554,50.00077277372958
31,0.042098194444444438,50.000804766394403
32,0.043487083333333329,50.00083518791449
33,0.04487597222222222,50.000854274182956
34,0.046264861111111104,50.000858277135919
35,0.047653749999999995,50.000850416771314
36,0.049042638888888886,50.000836778844445
37,0.050431527777777777,50.000823348516853
38,0.05182041666666666,50.000813631082046
39,0.053209305555555551,50.00080889698831
40,0.054598194444444442,50.00080824255695
41,0.055987083333333326,50.000809689407319
42,0.057375972222222217,50.000811008481293
43,0.058764861111111108,50.000811315991172
44,0.060153749999999999,50.000810226581535
45,0.061542638888888883,50.000808139607862
46,0.062931527777777774,50.000805391575952
47,0.064320416666666658,50.000802683075818
48,0.065709305555555556,50.000800329918349
49,0.067098194444444439,50.000798582412173
50,0.068487083333333323,50.000797179602095
51,0.069875972222222221,50.000796149660133
52,0.071264861111111105,50.000795122753857
53,0.072653749999999989,50.000794142948891
54,0.074042638888888887,50.000792965982043
55,0.075431527777777771,50.000791771083435
56,0.076820416666666669,50.000790431987916
57,0.078209305555555553,50.000789178278595
58,0.079598194444444437,50.000787891419705
59,0.080987083333333335,50.000786762831986
60,0.082375972222222218,50.000785631847229
61,0.083764861111111102,50.000784662761248
62,0.08515375,50.000783630740848
63,0.086542638888888884,50.000782701852216
64,0.087931527777777768,50.000781754820693
65,0.089320416666666666,50.000780878054087
66,0.09070930555555555,50.000779836997346
67,0.092098194444444434,50.000778999277323
68,0.093487083333333332,50.000778100177769
69,0.094875972222222216,50.000777229630792
70,0.096264861111111114,50.000776402898694
71,0.097653749999999997,50.000775652381861
72,0.099042638888888881,50.000774806945401
73,0.10043152777777778,50.000774095445855
74,0.10182041666666666,50.000773350373628
75,0.10320930555555555,50.000772644402531
76,0.10459819444444445,50.000771905995094
77,0.10598708333333333,50.00077126462422
78,0.10737597222222221,50.000766964676131
79,0.10876486111111111,50.000766726879192
80,0.11015374999999999,50.000766699193058
81,0.11154263888888888,50.000765549768481
82,0.11293152777777778,50.000764568270768
83,0.11432041666666666,50.000763422405782
84,0.11570930555555556,50.000762342605256
85,0.11709819444444444,50.000761820499271
86,0.11848708333333333,50.000761403461077
87,0.11987597222222222,50.000760894752574
88,0.12126486111111111,50.000760759579244
89,0.12265374999999999,50.00076053190341
90,0.12404263888888889,50.000759986227223
91,0.12543152777777777,50.000759663855078
92,0.12682041666666666,50.000759272998181
93,0.12820930555555554,50.000758696726372
94,0.12959819444444445,50.00075826814016
95,0.13098708333333334,50.000757934116358
96,0.13237597222222222,50.000757477834412
97,0.13376486111111111,50.000757258791921
98,0.13515374999999999,50.000756851009463
99,0.13654263888888887,50.000756398577678
100,0.13793152777777778,50.00075574754176
101,0.13932041666666667,50.000755462636178
102,0.14070930555555555,50.000755194883801
103,0.14209819444444444,50.000754881016917
104,0.14348708333333332,50.000754560348327
105,0.1448759722222222,50.000754420321371
106,0.14626486111111112,50.00075427911576
107,0.14765375,50.000754074299422
108,0.14904263888888888,50.000753720123164
109,0.15043152777777777,50.000753355959759
110,0.15182041666666665,50.000753369186462
111,0.15320930555555556,50.000752977740795
112,0.15459819444444445,50.000752697597157
113,0.15598708333333333,50.000752089522571
114,0.15737597222222222,50.000751880287545
115,0.1587648611111111,50.000751837709089
116,0.16015374999999998,50.000751905856653
117,0.1615426388888889,50.000751673331855
118,0.16293152777777778,50.000751410826247
119,0.16432041666666666,50.000751101320382
120,0.16570930555555555,50.00075110473167
121,0.16709819444444443,50.000751021411482
122,0.16848708333333334,50.000750895615035
123,0.16987597222222223,50.000750425211017
124,0.17126486111111111,50.000750023877806
125,0.17265374999999999,50.000749716036246
126,0.17404263888888888,50.000749859328849
127,0.17543152777777776,50.000749875001425
128,0.17682041666666667,50.000749929285796
129,0.17820930555555556,50.000749658052193
130,0.17959819444444444,50.000749374532987
131,0.18098708333333333,50.000748800900503
132,0.18237597222222221,50.000748732584917
133,0.18376486111111109,50.000748779024214
134,0.18515375000000001,50.000749081801402
135,0.18654263888888889,50.000749054083272
136,0.18793152777777777,50.000749025457772
137,0.18932041666666666,50.000748481957856
138,0.19070930555555554,50.000748050680485
139,0.19209819444444445,50.000747474533405
140,0.19348708333333334,50.000747351734958
141,0.19487597222222222,50.00074746783654
142,0.19626486111111111,50.000747905386376
143,0.19765374999999999,50.000748170653445
144,0.19904263888888887,50.000748335818955
145,0.20043152777777778,50.00074807763248
146,0.20182041666666667,50.000747721583927
147,0.20320930555555555,50.00074707923298
148,0.20459819444444444,50.000746712025631
149,0.20598708333333332,50.000746348998135
150,0.2073759722222222,50.00074638674262
151,0.20876486111111112,50.000746453777353
152,0.21015375,50.00074687595319
153,0.21154263888888888,50.000747142107755
154,0.21293152777777777,50.000747386966935
155,0.21432041666666665,50.000747247724178
156,0.21570930555555556,50.000747021894846
157,0.21709819444444445,50.000746489612737
158,0.21848708333333333,50.000746208121342
159,0.21987597222222222,50.000745695761609
160,0.2212648611111111,50.000745484202874
161,0.22265374999999998,50.000745281510632
162,0.2240426388888889,50.000745290067606
163,0.22543152777777778,50.000745194089824
164,0.22682041666666666,50.000745569765826
165,0.22820930555555555,50.000745696812047
166,0.22959819444444443,50.000745919998906
167,0.23098708333333334,50.000745860625244
168,0.23237597222222223,50.000745775048138
169,0.23376486111111111,50.000745533421401
170,0.23515374999999999,50.000745432204695
171,0.23654263888888888,50.000745251079685
172,0.23793152777777776,50.00074520186169
173,0.23932041666666667,50.000745010641111
174,0.24070930555555556,50.000744842194301
175,0.24209819444444444,50.000744614108029
176,0.24348708333333333,50.00074437836561
177,0.24487597222222221,50.000744111579564
178,0.24626486111111109,50.000744029177064
179,0.24765375000000001,50.00074382136166
180,0.24904263888888889,50.000743672834417
181,0.25043152777777777,50.000743699229396
182,0.25182041666666666,50.000743735044679
183,0.25320930555555554,50.000743646526132
184,0.25459819444444443,50.00074376817463
185,0.25598708333333331,50.000743712914662
186,0.25737597222222219,50.000743607860862
187,0.25876486111111113,50.000743622679416
188,0.26015375000000002,50.000743627130014
189,0.2615426388888889,50.00074345494005
190,0.26293152777777778,50.000743441211441
191,0.26432041666666667,50.000743295635132
192,0.26570930555555555,50.00074312068368
193,0.26709819444444444,50.000743010965081
194,0.26848708333333332,50.000742721263272
195,0.2698759722222222,50.000742488129319
196,0.27126486111111109,50.000742471910101
197,0.27265374999999997,50.000742408340415
198,0.27404263888888891,50.000742366675418
199,0.2754315277777778,50.000742267626805
200,0.27682041666666668,50.000742129779198
201,0.27820930555555556,50.000741958035697
202,0.27959819444444445,50.000741918719513
203,0.28098708333333333,50.000741696443455
204,0.28237597222222222,50.000741581643858
205,0.2837648611111111,50.000741588748454
206,0.28515374999999998,50.000741506911119
207,0.28654263888888887,50.000741271519821
208,0.28793152777777775,50.00073543663116
209,0.28932041666666664,50.000737041558324
210,0.29070930555555557,50.000744765224823
211,0.29209819444444446,50.000743969617595
212,0.29348708333333334,50.000741556988778
213,0.29487597222222223,50.000739677356556
214,0.29626486111111111,50.000738633968673
215,0.29765374999999999,50.000732543851008
216,0.29904263888888888,50.000734611774568
217,0.30043152777777776,50.000743332934199
218,0.30182041666666665,50.000743474919332
219,0.30320930555555553,50.000735913649592
220,0.30459819444444441,50.000735876962423
221,0.30598708333333335,50.000742496354597
222,0.30737597222222224,50.000741486256302
223,0.30876486111111112,50.000733627099351
224,0.31015375000000001,50.000733659779428
225,0.31154263888888889,50.000741141939862
226,0.31293152777777777,50.000740811226692
227,0.31432041666666666,50.000733486600041
228,0.31570930555555554,50.000733773960498
229,0.31709819444444443,50.000735484622766
230,0.31848708333333331,50.00074177434913
231,0.31987597222222219,50.000740571346924
232,0.32126486111111113,50.000738037399557
233,0.32265375000000002,50.000736358245909
234,0.3240426388888889,50.000729768479943
235,0.32543152777777778,50.000731481040908
236,0.32682041666666667,50.000734400868396
237,0.32820930555555555,50.000741751584009
238,0.32959819444444444,50.000740678551772
239,0.33098708333333332,50.000732226627989
240,0.3323759722222222,50.000731434084138
241,0.33376486111111109,50.000732649563219
242,0.33515374999999997,50.000738985273699
243,0.33654263888888891,50.000738108332484
244,0.3379315277777778,50.00073012815411
245,0.33932041666666668,50.000730200519357
246,0.34070930555555556,50.000731832577245
247,0.34209819444444445,50.000733217915183
248,0.34348708333333333,50.000733681749246
249,0.34487597222222222,50.000733724482203
250,0.3462648611111111,50.000733194852351
251,0.34765374999999998,50.000732451752725
252,0.34904263888888887,50.00073178160622
253,0.35043152777777775,50.00073134988812
254,0.35182041666666664,50.000730880608877
255,0.35320930555555557,50.000730868340618
256,0.35459819444444446,50.000730966383706
257,0.35598708333333334,50.000730927234386
258,0.35737597222222223,50.000730780362311
259,0.35876486111111111,50.000730647097882
260,0.36015374999999999,50.000730548096428
261,0.36154263888888888,50.000730318597761
262,0.36293152777777776,50.000730071937966
263,0.36432041666666665,50.000729759463155
264,0.36570930555555553,50.000729632889822
265,0.36709819444444441,50.000729461852593
266,0.36848708333333335,50.000729299765631
267,0.36987597222222224,50.000729178957997
268,0.37126486111111112,50.000734334207756
269,0.37265375000000001,50.000727615271828
270,0.37404263888888889,50.000726401464462
271,0.37543152777777777,50.00072741472799
272,0.37682041666666666,50.000728034917266
273,0.37820930555555554,50.000728590422
274,0.37959819444444443,50.000728644198936
275,0.38098708333333331,50.000728381328713
276,0.38237597222222219,50.00072764138946
277,0.38376486111111113,50.000727068537778
278,0.38515375000000002,50.000726676357985
279,0.3865426388888889,50.000726508822311
280,0.38793152777777778,50.000726182283174
281,0.38932041666666667,50.000726243758592
282,0.39070930555555555,50.000726072254309
283,0.39209819444444444,50.0007260238052
284,0.39348708333333332,50.000725878846481
285,0.3948759722222222,50.000725792641582
286,0.39626486111111109,50.000725476177017
287,0.39765374999999997,50.000725379574106
288,0.39904263888888891,50.000724874547579
289,0.4004315277777778,50.000724642188523
290,0.40182041666666668,50.000724512658117
291,0.40320930555555556,50.000724475474343
292,0.40459819444444445,50.000724106044814
293,0.40598708333333333,50.000724056858289
294,0.40737597222222222,50.000723781719053
295,0.4087648611111111,50.00072367446198
296,0.41015374999999998,50.000723468078057
297,0.41154263888888887,50.00072333089269
298,0.41293152777777775,50.000722954232323
299,0.41432041666666664,50.000722797866807
300,0.41570930555555557,50.000722465401481
301,0.41709819444444446,50.000722314536887
302,0.41848708333333334,50.000722118167459
303,0.41987597222222223,50.000722075505948
304,0.42126486111111111,50.000721819616018
305,0.42265374999999999,50.000721700649017
306,0.42404263888888888,50.000721473873767
307,0.42543152777777776,50.000721089833306
308,0.42682041666666665,50.000721025908881
309,0.42820930555555553,50.000720855860642
310,0.42959819444444441,50.000720534444561
311,0.43098708333333335,50.000720426218649
312,0.43237597222222224,50.000720295118718
313,0.43376486111111112,50.000720010943844
314,0.43515375000000001,50.000719721742428
315,0.43654263888888889,50.000719709501986
316,0.43793152777777777,50.000719362654074
317,0.43932041666666666,50.000719052914746
318,0.44070930555555554,50.000719034978431
319,0.44209819444444443,50.000718913446242
320,0.44348708333333331,50.000718557551323
321,0.44487597222222219,50.000718363456002
322,0.44626486111111113,50.000718056453579
323,0.44765375000000002,50.000718045740712
324,0.4490426388888889,50.000717888126673
325,0.45043152777777778,50.000717566055357
326,0.45182041666666667,50.00071724867805
327,0.45320930555555555,50.000717184814214
328,0.45459819444444444,50.000716963492266
329,0.45598708333333332,50.000716710506659
330,0.4573759722222222,50.000716608194345
331,0.45876486111111109,50.000716478408911
332,0.46015374999999997,50.000716140223666
333,0.46154263888888891,50.00071606561886
334,0.4629315277777778,50.000715751399163
335,0.46432041666666668,50.000715596836663
336,0.46570930555555556,50.000715401410517
337,0.46709819444444445,50.000715044340033
338,0.46848708333333333,50.000714839593165
339,0.46987597222222222,50.000714789817856
340,0.4712648611111111,50.000714441618733
341,0.47265374999999998,50.000714168668559
342,0.47404263888888887,50.000713988805146
343,0.47543152777777775,50.000713946050162
344,0.47682041666666664,50.000713672148912
345,0.47820930555555557,50.000713485148708
346,0.47959819444444446,50.000713233598098
347,0.48098708333333334,50.000713161607671
348,0.48237597222222223,50.000712989374271
349,0.48376486111111111,50.000712686832941
350,0.48515374999999999,50.000712459006856
351,0.48654263888888888,50.000712581785692
352,0.48793152777777776,50.000712208143916
353,0.48932041666666665,50.000711789755741
354,0.49070930555555553,50.000711607633981
355,0.49209819444444441,50.000711561852576
356,0.49348708333333335,50.000711305569325
357,0.49487597222222224,50.000711086225564
358,0.49626486111111112,50.000710815296344
359,0.49765375000000001,50.000710808437169
360,0.49904263888888889,50.000710677436494
361,0.50043152777777777,50.000710298935857
362,0.50182041666666666,50.000710038606897
363,0.50320930555555554,50.000710164865275
364,0.50459819444444443,50.00070990822752
365,0.50598708333333331,50.000709497754521
366,0.50737597222222219,50.000709305234302
367,0.50876486111111108,50.00070924995137
368,0.51015374999999996,50.000708971585205
369,0.51154263888888885,50.000708722242294
370,0.51293152777777773,50.000708467071874
371,0.51432041666666661,50.000708489920285
372,0.5157093055555555,50.00070838882052
373,0.51709819444444449,50.000708062228675
374,0.51848708333333338,50.00070780841898
375,0.51987597222222226,50.000707751825523
376,0.52126486111111114,50.000707577658567
377,0.52265375000000003,50.000707165326908
378,0.52404263888888891,50.000706975219323
379,0.5254315277777778,50.000707047459727
380,0.52682041666666668,50.00070671281258
381,0.52820930555555556,50.00070666556185
382,0.52959819444444445,50.0007065929493
383,0.53098708333333333,50.000706530665184
384,0.53237597222222222,50.00070611527893
385,0.5337648611111111,50.000705796515874
386,0.53515374999999998,50.000705629248067
387,0.53654263888888887,50.000705618927533
388,0.53793152777777775,50.00070530363449
389,0.53932041666666664,50.000704956748791
390,0.54070930555555552,50.000704839502461
391,0.5420981944444444,50.000696959474588
392,0.54348708333333329,50.000699535947703
393,0.54487597222222217,50.000710861313408
394,0.54626486111111106,50.000710112975568
395,0.54765375000000005,50.000706650087537
396,0.54904263888888893,50.000703466665122
397,0.55043152777777782,50.000701388101412
398,0.5518204166666667,50.00070058781472
399,0.55320930555555559,50.00070091942726
400,0.55459819444444447,50.000693740745497
401,0.55598708333333335,50.000697409270359
402,0.55737597222222224,50.000709653614592
403,0.55876486111111112,50.00070934346882
404,0.56015375000000001,50.000705530119362
405,0.56154263888888889,50.000694320427058
406,0.56293152777777777,50.000694843983808
407,0.56432041666666666,50.000705406516587
408,0.56570930555555554,50.000704799674565
409,0.56709819444444443,50.0007022172544
410,0.56848708333333331,50.000692608429603
411,0.56987597222222219,50.000694388194283
412,0.57126486111111108,50.000705271926094
413,0.57265374999999996,50.000704956172932
414,0.57404263888888885,50.000702366540985
415,0.57543152777777773,50.000699987226575
416,0.57682041666666661,50.000698227096201
417,0.5782093055555555,50.00068963371649
418,0.57959819444444449,50.000692747075213
419,0.58098708333333338,50.000705012374887
420,0.58237597222222226,50.000705215495934
421,0.58376486111111114,50.000694308206953
422,0.58515375000000003,50.000694022244375
423,0.58654263888888891,50.000703491556848
424,0.5879315277777778,50.00070210974588
425,0.58932041666666668,50.000690938432932
426,0.59070930555555556,50.000691435158998
427,0.59209819444444445,50.000701902198202
428,0.59348708333333333,50.000701481098908
429,0.59487597222222222,50.000690880065868
430,0.5962648611111111,50.000691475369457
431,0.59765374999999998,50.000701878770826
432,0.59904263888888887,50.000701320535491
433,0.60043152777777775,50.000690354808874
434,0.60182041666666664,50.000690628917113
435,0.60320930555555552,50.000693259027216
436,0.6045981944444444,50.000702740880634
437,0.60598708333333329,50.000701098006608
438,0.60737597222222217,50.000689678970382
439,0.60876486111111106,50.000689395534259
440,0.61015375000000005,50.000691653060407
441,0.61154263888888893,50.000701123997608
442,0.61293152777777782,50.000700004991153
443,0.6143204166666667,50.000688964746288
444,0.61570930555555559,50.000688771155716
445,0.61709819444444447,50.000691084343117
446,0.61848708333333335,50.000693116921589
447,0.61987597222222224,50.000701901921012
448,0.62126486111111112,50.00069972213393
449,0.62265375000000001,50.000687441794376
450,0.62404263888888889,50.000686816832534
451,0.62543152777777777,50.00068933764981
452,0.62682041666666666,50.000691853665181
453,0.62820930555555554,50.00069320447372
454,0.62959819444444443,50.000701270999031
455,0.63098708333333331,50.000690830989939
456,0.63237597222222219,50.000688698936393
457,0.63376486111111108,50.0006892038651
458,0.63515374999999996,50.00069004806096
459,0.63654263888888885,50.000690994775688
460,0.63793152777777773,50.000691673423901
461,0.63932041666666661,50.000691568859395
462,0.6407093055555555,50.000691415488681
463,0.64209819444444449,50.000690807831397
464,0.64348708333333338,50.00069041063302
465,0.64487597222222226,50.00068990167069
466,0.64626486111111114,50.000689699669067
467,0.64765375000000003,50.000689775180099
468,0.64904263888888891,50.000689655709984
